Unit Serial No : 240-IM0P2868-EU
Integration Time : 50 ms
Time Average: 20
Binning Average: 0
FFT Smoothing: 0%
Project Name : ILT900W-Irradiance 
Sample Name :  ILT900W2868
Measurement No : 1
Measurement Time : 10/19/2015   13:41:17

Wavelength(nm)	Wavenumber(1/cm)	Transmittance(%)
425.0000      	23529.4118    	0.00000       
426.0000      	23474.1784    	0.00000       
427.0000      	23419.2037    	32.12781      
428.0000      	23364.4860    	31.78196      
429.0000      	23310.0233    	35.59156      
430.0000      	23255.8140    	37.70570      
431.0000      	23201.8561    	42.22595      
432.0000      	23148.1481    	43.37251      
433.0000      	23094.6882    	41.58674      
434.0000      	23041.4747    	44.71975      
435.0000      	22988.5057    	48.53698      
436.0000      	22935.7798    	49.25347      
437.0000      	22883.2952    	51.06353      
438.0000      	22831.0502    	52.57516      
439.0000      	22779.0433    	52.95872      
440.0000      	22727.2727    	54.68016      
441.0000      	22675.7370    	55.26841      
442.0000      	22624.4344    	55.62510      
443.0000      	22573.3634    	54.86488      
444.0000      	22522.5225    	54.46770      
445.0000      	22471.9101    	55.12568      
446.0000      	22421.5247    	56.40744      
447.0000      	22371.3647    	56.28247      
448.0000      	22321.4286    	56.37854      
449.0000      	22271.7149    	56.50574      
450.0000      	22222.2222    	57.88345      
451.0000      	22172.9490    	58.02634      
452.0000      	22123.8938    	58.40473      
453.0000      	22075.0552    	58.65475      
454.0000      	22026.4317    	59.97003      
455.0000      	21978.0220    	59.77027      
456.0000      	21929.8246    	60.33099      
457.0000      	21881.8381    	61.82590      
458.0000      	21834.0611    	61.57349      
459.0000      	21786.4924    	62.20040      
460.0000      	21739.1304    	62.41068      
461.0000      	21691.9740    	62.49936      
462.0000      	21645.0216    	64.14265      
463.0000      	21598.2721    	63.77897      
464.0000      	21551.7241    	64.26472      
465.0000      	21505.3763    	63.98670      
466.0000      	21459.2275    	63.39373      
467.0000      	21413.2762    	63.67059      
468.0000      	21367.5214    	63.92199      
469.0000      	21321.9616    	64.20898      
470.0000      	21276.5957    	64.14845      
471.0000      	21231.4225    	64.59216      
472.0000      	21186.4407    	64.40919      
473.0000      	21141.6490    	64.75914      
474.0000      	21097.0464    	63.87598      
475.0000      	21052.6316    	63.99804      
476.0000      	21008.4034    	64.89672      
477.0000      	20964.3606    	65.39081      
478.0000      	20920.5021    	66.60707      
479.0000      	20876.8267    	67.85082      
480.0000      	20833.3333    	67.82798      
481.0000      	20790.0208    	67.31025      
482.0000      	20746.8880    	68.85124      
483.0000      	20703.9337    	68.33753      
484.0000      	20661.1570    	72.14120      
485.0000      	20618.5567    	69.69620      
486.0000      	20576.1317    	70.22404      
487.0000      	20533.8809    	70.13815      
488.0000      	20491.8033    	70.21370      
489.0000      	20449.8978    	69.53082      
490.0000      	20408.1633    	69.22391      
491.0000      	20366.5988    	68.64837      
492.0000      	20325.2033    	68.14933      
493.0000      	20283.9757    	66.95161      
494.0000      	20242.9150    	66.56913      
495.0000      	20202.0202    	66.06360      
496.0000      	20161.2903    	65.53110      
497.0000      	20120.7243    	64.87492      
498.0000      	20080.3213    	63.95463      
499.0000      	20040.0802    	63.50148      
500.0000      	20000.0000    	63.63988      
501.0000      	19960.0798    	62.52555      
502.0000      	19920.3187    	61.70575      
503.0000      	19880.7157    	61.58110      
504.0000      	19841.2698    	61.40074      
505.0000      	19801.9802    	60.78024      
506.0000      	19762.8458    	60.87246      
507.0000      	19723.8659    	60.15829      
508.0000      	19685.0394    	60.44928      
509.0000      	19646.3654    	59.58112      
510.0000      	19607.8431    	59.37790      
511.0000      	19569.4716    	58.78305      
512.0000      	19531.2500    	59.07958      
513.0000      	19493.1774    	57.97501      
514.0000      	19455.2529    	57.28303      
515.0000      	19417.4757    	56.15654      
516.0000      	19379.8450    	55.44490      
517.0000      	19342.3598    	53.64863      
518.0000      	19305.0193    	52.99549      
519.0000      	19267.8227    	51.94699      
520.0000      	19230.7692    	51.28001      
521.0000      	19193.8580    	49.76612      
522.0000      	19157.0881    	48.44265      
523.0000      	19120.4589    	47.13895      
524.0000      	19083.9695    	45.80213      
525.0000      	19047.6190    	44.31233      
526.0000      	19011.4068    	43.41095      
527.0000      	18975.3321    	42.87569      
528.0000      	18939.3939    	41.08683      
529.0000      	18903.5917    	40.37047      
530.0000      	18867.9245    	38.75151      
531.0000      	18832.3917    	37.96400      
532.0000      	18796.9925    	36.90404      
533.0000      	18761.7261    	35.60121      
534.0000      	18726.5918    	34.52278      
535.0000      	18691.5888    	34.17921      
536.0000      	18656.7164    	33.27533      
537.0000      	18621.9739    	32.19070      
538.0000      	18587.3606    	31.11186      
539.0000      	18552.8757    	29.95108      
540.0000      	18518.5185    	28.93180      
541.0000      	18484.2884    	28.06220      
542.0000      	18450.1845    	27.71063      
543.0000      	18416.2063    	26.54095      
544.0000      	18382.3529    	25.13744      
545.0000      	18348.6239    	24.36191      
546.0000      	18315.0183    	23.38711      
547.0000      	18281.5356    	22.13395      
548.0000      	18248.1752    	21.13593      
549.0000      	18214.9362    	20.55777      
550.0000      	18181.8182    	19.34541      
551.0000      	18148.8203    	18.07295      
552.0000      	18115.9420    	16.95476      
553.0000      	18083.1826    	15.94400      
554.0000      	18050.5415    	14.97359      
555.0000      	18018.0180    	13.91226      
556.0000      	17985.6115    	13.61758      
557.0000      	17953.3214    	12.38235      
558.0000      	17921.1470    	11.47520      
559.0000      	17889.0877    	10.53716      
560.0000      	17857.1429    	9.62245       
561.0000      	17825.3119    	8.92182       
562.0000      	17793.5943    	7.98887       
563.0000      	17761.9893    	7.65651       
564.0000      	17730.4965    	6.89769       
565.0000      	17699.1150    	6.18293       
566.0000      	17667.8445    	5.42800       
567.0000      	17636.6843    	4.77523       
568.0000      	17605.6338    	4.57834       
569.0000      	17574.6924    	4.12707       
570.0000      	17543.8596    	3.87250       
571.0000      	17513.1349    	3.18763       
572.0000      	17482.5175    	2.84255       
573.0000      	17452.0070    	2.55173       
574.0000      	17421.6028    	2.18816       
575.0000      	17391.3043    	1.98276       
576.0000      	17361.1111    	1.65300       
577.0000      	17331.0225    	1.60701       
578.0000      	17301.0381    	1.45946       
579.0000      	17271.1572    	1.16409       
580.0000      	17241.3793    	1.05776       
581.0000      	17211.7040    	0.92627       
582.0000      	17182.1306    	0.62459       
583.0000      	17152.6587    	0.63706       
584.0000      	17123.2877    	0.43219       
585.0000      	17094.0171    	0.32805       
586.0000      	17064.8464    	0.39956       
587.0000      	17035.7751    	0.17345       
588.0000      	17006.8027    	0.14957       
589.0000      	16977.9287    	0.14013       
590.0000      	16949.1525    	0.14379       
591.0000      	16920.4738    	0.15967       
592.0000      	16891.8919    	0.09852       
593.0000      	16863.4064    	0.09903       
594.0000      	16835.0168    	0.10731       
595.0000      	16806.7227    	0.05366       
596.0000      	16778.5235    	0.18456       
597.0000      	16750.4188    	0.13241       
598.0000      	16722.4080    	0.03675       
599.0000      	16694.4908    	0.01165       
600.0000      	16666.6667    	0.01178       
601.0000      	16638.9351    	0.06260       
602.0000      	16611.2957    	0.13868       
603.0000      	16583.7479    	0.25019       
604.0000      	16556.2914    	0.01224       
605.0000      	16528.9256    	0.01241       
606.0000      	16501.6502    	0.18117       
607.0000      	16474.4646    	0.06755       
608.0000      	16447.3684    	0.09701       
609.0000      	16420.3612    	0.09665       
610.0000      	16393.4426    	0.20559       
611.0000      	16366.6121    	0.13346       
612.0000      	16339.8693    	0.19809       
613.0000      	16313.2137    	0.19978       
614.0000      	16286.6450    	0.01380       
615.0000      	16260.1626    	0.01393       
616.0000      	16233.7662    	0.01417       
617.0000      	16207.4554    	0.12293       
618.0000      	16181.2298    	0.31245       
619.0000      	16155.0889    	0.08427       
620.0000      	16129.0323    	0.00413       
621.0000      	16103.0596    	0.01532       
622.0000      	16077.1704    	0.01539       
623.0000      	16051.3644    	0.17291       
624.0000      	16025.6410    	0.11338       
625.0000      	16000.0000    	0.11878       
626.0000      	15974.4409    	0.01667       
627.0000      	15948.9633    	0.21379       
628.0000      	15923.5669    	0.16631       
629.0000      	15898.2512    	0.25045       
630.0000      	15873.0159    	0.01776       
631.0000      	15847.8605    	0.22731       
632.0000      	15822.7848    	0.01857       
633.0000      	15797.7883    	0.21602       
634.0000      	15772.8707    	0.25808       
635.0000      	15748.0315    	0.17948       
636.0000      	15723.2704    	0.09596       
637.0000      	15698.5871    	0.02046       
638.0000      	15673.9812    	0.02106       
639.0000      	15649.4523    	0.06287       
640.0000      	15625.0000    	0.18153       
641.0000      	15600.6240    	0.22828       
642.0000      	15576.3240    	0.29917       
643.0000      	15552.0995    	0.05702       
644.0000      	15527.9503    	0.09811       
645.0000      	15503.8760    	0.16101       
646.0000      	15479.8762    	0.33936       
647.0000      	15455.9505    	0.02565       
648.0000      	15432.0988    	0.02634       
649.0000      	15408.3205    	0.02707       
650.0000      	15384.6154    	0.33920       
651.0000      	15360.9831    	0.59331       
652.0000      	15337.4233    	0.29559       
653.0000      	15313.9357    	0.02991       
654.0000      	15290.5199    	0.24234       
655.0000      	15267.1756    	0.13302       
656.0000      	15243.9024    	0.24195       
657.0000      	15220.7002    	0.17899       
658.0000      	15197.5684    	0.44866       
659.0000      	15174.5068    	0.03524       
660.0000      	15151.5152    	0.16426       
661.0000      	15128.5930    	0.35503       
662.0000      	15105.7402    	0.29541       
663.0000      	15082.9563    	0.28585       
664.0000      	15060.2410    	0.38033       
665.0000      	15037.5940    	0.34883       
666.0000      	15015.0150    	0.14735       
667.0000      	14992.5037    	0.05780       
668.0000      	14970.0599    	0.05086       
669.0000      	14947.6831    	0.26066       
670.0000      	14925.3731    	0.38165       
671.0000      	14903.1297    	0.05107       
672.0000      	14880.9524    	0.49166       
673.0000      	14858.8410    	0.31935       
674.0000      	14836.7953    	0.49277       
675.0000      	14814.8148    	0.50940       
676.0000      	14792.8994    	0.05624       
677.0000      	14771.0487    	0.05781       
678.0000      	14749.2625    	0.59691       
679.0000      	14727.5405    	0.64201       
680.0000      	14705.8824    	0.41597       
681.0000      	14684.2878    	0.16922       
682.0000      	14662.7566    	0.07198       
683.0000      	14641.2884    	0.80593       
684.0000      	14619.8830    	0.38396       
685.0000      	14598.5401    	0.07392       
686.0000      	14577.2595    	0.29762       
687.0000      	14556.0408    	0.42852       
688.0000      	14534.8837    	0.56835       
689.0000      	14513.7881    	0.96771       
690.0000      	14492.7536    	1.19354       
691.0000      	14471.7800    	1.37131       
692.0000      	14450.8671    	0.09638       
693.0000      	14430.0144    	1.01738       
694.0000      	14409.2219    	0.11750       
695.0000      	14388.4892    	0.95197       
696.0000      	14367.8161    	0.98952       
697.0000      	14347.2023    	0.46722       
698.0000      	14326.6476    	0.11841       
699.0000      	14306.1516    	0.05264       
700.0000      	14285.7143    	0.74079       
